,frequency,Z,phi,ReZ,ImZ
0,1000000.0,100.155,-0.87,100.14358604645119,-1.5207315862653765
1,958000.0,99.9915,-0.85,99.98049683288195,-1.4834235257731812
2,919000.0,100.26,-0.9550000000000001,100.24577970984737,-1.671128604032251
3,881000.0,100.07000000000001,-0.9400000000000001,100.05653288386694,-1.6420123824463253
4,844000.0,100.33500000000001,-1.04,100.31815063901492,-1.8211231431618087
5,809000.0,100.11,-1.04,100.09302911060807,-1.8170392969744222
6,775000.0,100.37,-1.1350000000000002,100.35082431531083,-1.9881481675657158
7,743000.0,100.16,-1.17,100.13929553839874,-2.0450582441097396
8,712000.0,100.17,-1.2149999999999999,100.1483896449907,-2.123702314009905
9,683000.0,100.42500000000001,-1.315,100.39894892236653,-2.3048880052960614
10,655000.0,100.45,-1.3800000000000001,100.42065333607584,-2.4191589488163494
11,627000.0,100.185,-1.405,100.15509220695742,-2.4562340447014286
12,601000.0,100.445,-1.5,100.41058000716984,-2.629343572784318
13,576000.0,100.24000000000001,-1.55,100.20449536263256,-2.7123689400823947
14,552000.0,100.22,-1.6150000000000002,100.1791972681755,-2.824531127955961
15,530000.0,100.23500000000001,-1.67,100.19217012331293,-2.9211357472094903
16,508000.0,100.24000000000001,-1.755,100.19297924405905,-3.070074999106269
17,486000.0,100.505,-1.87,100.45176037721278,-3.279828545934619
18,466000.0,100.305,-1.92,100.24897943029683,-3.3606237654489757
19,447000.0,100.34,-2.0100000000000002,100.27826287366199,-3.5193174111956185
20,428000.0,100.61,-2.13,100.54048555209232,-3.739366918278694
21,411000.0,100.41,-2.2,100.33564924597357,-3.854136032387003
22,394000.0,100.43,-2.305,100.34909157293973,-4.038188836915177
23,377000.0,100.48,-2.4,100.39185585211136,-4.207456308441333
24,362000.0,100.52,-2.495,100.42470909898005,-4.375857108820654
25,347000.0,100.56,-2.61,100.45568280090963,-4.579234980106633
26,332000.0,100.60000000000001,-2.725,100.48790710809406,-4.783232664659313
27,318000.0,100.89,-2.85,100.76477340996351,-5.016389409608892
28,305000.0,100.93,-2.98,100.79443091543804,-5.246564935721412
29,293000.0,100.98,-3.09,100.83270875320954,-5.443279907543455
30,280000.0,101.03,-3.23,100.86950366598008,-5.692462575971242
31,269000.0,101.08,-3.36,100.90624229886726,-5.924243843925633
32,258000.0,100.89,-3.49,100.70396363953442,-6.141611276766325
33,247000.0,100.96000000000001,-3.63,100.75744542432848,-6.392088200539105
34,237000.0,101.025,-3.77,100.8069640525632,-6.6428683582336046
35,227000.0,101.33,-3.94,101.09051182219662,-6.962565585064623
36,217000.0,101.41,-4.11,101.1492027957054,-7.268209806634743
37,208000.0,101.49000000000001,-4.28,101.20696928403899,-7.573517244582638
38,200000.0,101.34,-4.43,101.03724123363108,-7.827610356746172
39,191000.0,101.44,-4.62,101.11040348753957,-8.170673569966146
40,184000.0,101.76,-4.79,101.40459797062965,-8.497359025895971
41,176000.0,101.66,-4.98,101.27623964971187,-8.824901269370054
42,169000.0,101.76,-5.17,101.34601154310083,-9.169707972758754
43,162000.0,102.12,-5.38,101.670136273142,-9.575320771516921
44,155000.0,102.04,-5.6000000000000005,101.55474023440603,-9.957359091423612
45,148000.0,102.41,-5.835,101.88030060956295,-10.411411004714697
46,142000.0,102.35000000000001,-6.0600000000000005,101.77994104141446,-10.805075852303842
47,136000.0,102.52,-6.29,101.90283908991766,-11.232176343627593
48,131000.0,102.9,-6.51,102.23752663748527,-11.665887628236867
49,125000.0,103.12,-6.78,102.39885898785188,-12.174074009386787
50,120000.0,103.09,-7.03,102.31499050820987,-12.617084342466875
51,115000.0,103.535,-7.285,102.69923128480451,-13.128748488587915
52,110000.0,103.78,-7.58,102.87313362723883,-13.689659517762369
53,106000.0,104.01,-7.8100000000000005,103.04521765014442,-14.133761687334486
54,101000.0,104.33,-8.145,103.27759043039798,-14.779215847740879
55,97000.0,104.60000000000001,-8.44,103.46719316065538,-15.352522250615051
56,93000.0,104.91,-8.74,103.69178990099242,-15.941167056663314
57,89000.0,105.06,-9.06,103.7492694728232,-16.54365992927553
58,86000.0,105.33,-9.32,103.93956457170282,-17.058013267811123
59,82000.0,105.78,-9.68,104.27392794087231,-17.78640918740404
60,79000.0,106.13,-9.97,104.52728204870881,-18.374553260138764
61,75000.0,106.68,-10.38,104.93412034788811,-19.22025379012296
62,72000.0,107.15,-10.71,105.28348735700128,-19.912553576780457
63,69000.0,107.65,-11.06,105.65059830700632,-20.651236703199977
64,66000.0,108.2,-11.43,106.05412859747393,-21.442056977595694
65,64000.0,108.62,-11.68,106.37086399788676,-21.98962692596401
66,61000.0,109.33,-12.09,106.90503952192927,-22.897892142352315
67,58000.0,110.10000000000001,-12.530000000000001,107.47769829034705,-23.88627995752228
68,56000.0,110.66,-12.83,107.89717591687275,-24.57305494161063
69,54000.0,111.28,-13.13,108.37082470102484,-25.27850378522713
70,51000.0,112.35000000000001,-13.61,109.19520590322666,-26.437274968346003
71,49000.0,113.14,-13.955000000000002,109.80319074875696,-27.28601967852238
72,47000.0,114.01,-14.31,110.4725669454951,-28.17963896988576
73,45000.0,114.95,-14.68,111.19760347530622,-29.13066221953365
74,43000.0,115.99000000000001,-15.05,112.01149617428867,-30.11818096760358
75,42000.0,116.55,-15.24,112.45131141119931,-30.63666205547654
76,40000.0,117.77,-15.6,113.43165549176021,-31.673376472065996
77,38000.0,119.17,-15.99,114.5592875660015,-32.824955129442216
78,37000.0,119.93,-16.18,115.17969424164481,-33.419200086196184
79,35000.0,121.57000000000001,-16.580000000000002,116.51539173280786,-34.690465395412815
80,34000.0,122.45500000000001,-16.78,117.2409065513895,-35.35390954077384
81,32000.0,124.36,-17.16,118.82085860739234,-36.69130720756107
82,31000.0,125.39,-17.34,119.69139565736418,-37.37140491863137
83,30000.0,126.52,-17.51,120.65762661377052,-38.066357061478016
84,28000.0,129.03,-17.830000000000002,122.83258594648018,-39.508185603752544
85,27000.0,130.41500000000002,-17.990000000000002,124.0390674391368,-40.28034728871574
86,26000.0,131.87,-18.150000000000002,125.30870969617264,-41.07826888125071
87,25000.0,133.41,-18.28,126.67746753063206,-41.84551732295421
88,24000.0,135.01,-18.38,128.12261823930777,-42.5710558420225
89,23000.0,136.75,-18.46,129.7135211640587,-43.30086520176353
90,22000.0,138.61,-18.52,131.43178136616945,-44.02747945221756
91,21000.0,140.59,-18.54,133.29364663893807,-44.70292905049865
92,20000.0,142.72,-18.54,135.31310369378505,-45.38019798056168
93,19000.0,145.01,-18.490000000000002,137.52444181664652,-45.98834638275016
94,18000.0,147.46,-18.39,139.92937828687647,-46.52118541318814
95,17000.0,150.06,-18.25,142.51185087785368,-46.99336080095146
96,16000.0,152.84,-18.06,145.30993895215272,-47.38235158496939
97,15000.0,155.74,-17.8,148.2846316256607,-47.60898679495408
98,14000.0,158.79,-17.465,151.46569520563486,-47.658055149968234
99,13000.0,161.96,-17.04,154.8500222381534,-47.460638563375895
100,12000.0,165.25,-16.5,158.4449611869689,-46.93353571232322
101,11000.0,168.64000000000001,-15.85,162.2283102075365,-46.05892928854627
102,10000.0,172.53,-15.040000000000001,166.6199677925339,-44.77038343386123
103,9000.0,176.19,-14.17,170.82918309315048,-43.130044284550735
104,8000.0,179.745,-13.16,175.02812176511594,-40.92160858677037
105,7000.0,183.25,-11.98,179.25883625907733,-38.03724652286639
106,6000.0,186.765,-10.655000000000001,183.54786960503603,-34.530954831170554
107,5000.0,189.98,-9.19,187.54144608507056,-30.34149634280702
108,4000.0,192.9,-7.58,191.21880969076327,-25.44551282497939
109,3000.0,195.385,-5.8500000000000005,194.36919905117256,-19.913490550957903
110,2000.0,197.33,-3.99,196.8517134931355,-13.730688067846534
111,1000.0,198.65,-2.0300000000000002,198.52533057583733,-7.03673359979715
112,999.0,198.64000000000001,-2.0300000000000002,198.5153368516704,-7.03637937208007
113,957.0,198.68,-1.94,198.56494481565278,-6.726067038907367
114,918.0,198.71,-1.87,198.60417479361547,-6.4842774884356595
115,879.0,198.745,-1.79,198.64747459451286,-6.208060788067751
116,843.0,198.775,-1.72,198.68544068144723,-5.966262332408283
117,808.0,198.8,-1.6500000000000001,198.71757119691546,-5.724237730810778
118,774.0,198.83,-1.59,198.75344509365496,-5.516970491445921
119,742.0,198.85,-1.52,198.78002997329932,-5.274673811167914
120,712.0,198.87,-1.46,198.80543811157688,-5.067018577425998
121,682.0,198.89000000000001,-1.4000000000000001,198.83062930257952,-4.859315912781186
122,654.0,198.91,-1.35,198.8547885946625,-4.686272823053395
123,627.0,198.93,-1.29,198.879581943937,-4.478480300821662
124,601.0,198.95000000000002,-1.24,198.90340974343653,-4.305356249441846
125,576.0,198.97,-1.19,198.92708682472912,-4.132194020939795
126,552.0,198.97,-1.1400000000000001,198.93061709800617,-3.9585958377260018
127,529.0,199.0,-1.09,198.96399044838896,-3.7855653281096924
128,507.0,199.01,-1.05,198.9765831058628,-3.646844597138417
129,486.0,199.02,-1.01,198.9890790404315,-3.508108128451051
130,466.0,199.04,-0.97,199.01147680322012,-3.369525278341237
131,446.0,199.05,-0.93,199.02377936026528,-3.230750556208618
132,428.0,199.05,-0.89,199.0259863485766,-3.091804970597025
133,410.0,199.06,-0.86,199.03757680529407,-2.987744881456016
134,393.0,199.07,-0.8200000000000001,199.0496131161855,-2.848932834743511
135,377.0,199.07,-0.79,199.05107752857117,-2.7447103152691956
136,361.0,199.1,-0.76,199.0824847308084,-2.640884966717289
137,346.0,199.1,-0.73,199.08384020508416,-2.5366452642253434
138,332.0,199.11,-0.7000000000000001,199.0951403530926,-2.4324048662977114
139,318.0,199.11,-0.67,199.09638672968129,-2.328397670302195
140,305.0,199.12,-0.65,199.10718667981703,-2.2588962898945337
141,292.0,199.135,-0.62,199.12334126370888,-2.154806018307835
142,280.0,199.13,-0.59,199.11944248714445,-2.050544990016915
143,268.0,199.14000000000001,-0.5700000000000001,199.13014561849158,-1.9810870648058698
144,257.0,199.14000000000001,-0.55,199.13115561687627,-1.9115774119023643
145,247.0,199.15,-0.525,199.14147972342212,-1.8247807681491683
146,236.0,199.155,-0.5,199.14741678784503,-1.737933177178661
147,227.0,199.16,-0.48,199.1530111327422,-1.6684593977257152
148,217.0,199.16,-0.46,199.15358140183372,-1.5989417822985612
149,208.0,199.16500000000002,-0.44,199.1591272572314,-1.52946236891134
150,200.0,199.17000000000002,-0.42,199.16464887249958,-1.459979278608264
151,191.0,199.17000000000002,-0.41000000000000003,199.16490065350143,-1.425218467783952
152,183.0,199.16500000000002,-0.39,199.1603861305986,-1.3556626832926892
153,176.0,199.17000000000002,-0.38,199.16561959501848,-1.3209357790586982
154,168.0,199.17000000000002,-0.36,199.16606855471684,-1.2514137836203765
155,161.0,199.17000000000002,-0.35000000000000003,199.16628393415135,-1.2166527281914092
156,155.0,199.17000000000002,-0.33,199.16669649215814,-1.1471305072082747
157,148.0,199.17000000000002,-0.32,199.16689367071788,-1.1123693437718747
158,142.0,199.18,-0.31,199.1770846359388,-1.077662251393602
159,136.0,199.18,-0.29,199.17744867645956,-1.0081362687221733
160,131.0,199.18,-0.28,199.17762159578464,-0.973373230792608
161,125.0,199.18,-0.27,199.17778844781242,-0.9386101632123983
162,120.0,199.18,-0.26,199.1779492325378,-0.9038470670404882
163,115.0,199.185,-0.25,199.1831039023595,-0.8691057598822458
164,110.0,199.19,-0.24,199.1882525123323,-0.8343626809368989
165,106.0,199.19,-0.23,199.1883951022804,-0.799597760028988
166,101.0,199.20000000000002,-0.22,199.19853155088566,-0.7648712119131288
167,97.0,199.195,-0.21,199.1936620457119,-0.7300861721168601
168,93.0,199.20000000000002,-0.21,199.19866201212787,-0.7301044980329755
169,89.0,199.205,-0.2,199.20378637497015,-0.6953552151696436
170,85.0,199.21,-0.2,199.20878634450844,-0.6953377619125675
171,82.0,199.21,-0.19,199.2089046758104,-0.6606041658059705
172,79.0,199.20000000000002,-0.18,199.19901698821016,-0.6258042271872091
173,75.0,199.20000000000002,-0.17,199.19912317767748,-0.5910374307003713
174,72.0,199.20000000000002,-0.17,199.19912317767748,-0.5910374307003713
175,69.0,199.20000000000002,-0.16,199.19922329919248,-0.5562706162095039
176,66.0,199.20000000000002,-0.15,199.1993173527522,-0.5215037847736643
177,64.0,199.20000000000002,-0.15,199.1993173527522,-0.5215037847736643
178,61.0,199.205,-0.14,199.2044053234274,-0.4867491547445181
179,58.0,199.21,0.21,199.2086619449598,0.7301411498652061
180,56.0,199.21,0.29,199.20744829218552,1.0082881117187676
181,54.0,161.74,-35.730000000000004,131.29695336070864,-94.45071539271633
182,51.0,199.22,0.1,199.21969657066518,0.3477043170542611
183,49.0,199.215,-0.1,199.2146965782806,-0.3476955904124316
184,47.0,199.21,-0.45,199.20385589441855,-1.564575596040185
185,45.0,199.20000000000002,0.67,199.18638057632722,2.329333145461015
186,43.0,199.21,0.1,199.20969658589604,0.3476868637706021
187,42.0,199.215,-0.27,199.21278805919746,-0.9387750962162764
188,40.0,149.49,-41.37,112.18585114437546,-98.80078391901571
189,38.0,199.19,0.87,199.16703732749497,3.0244573378084003
190,37.0,199.20000000000002,0.5700000000000001,199.1901426494101,1.9816839575641723
191,35.0,199.21,0.34,199.20649254236048,1.1821289990862698
192,34.0,199.21,-0.1,199.20969658589604,-0.3476868637706021
193,32.0,199.21,-0.18,199.2090169388622,-0.6258356430620678
194,31.0,199.21,-0.27,199.20778811471388,-0.9387515343585795
195,30.0,199.21,-0.45,199.20385589441855,-1.564575596040185
196,28.0,199.19,-0.84,199.1685936281951,-2.920246612305756
197,27.0,199.215,-0.28,199.2126211778504,-0.9735687068907689
198,26.0,199.21,-0.13,199.20948723025413,-0.45199276456411164
199,25.0,199.21,-0.06,199.20989077090485,-0.20860695005892685
